 cell_label
4.77400e+03
3.43200e+04
3.62800e+03
1.14580e+04
1.77350e+04
2.03770e+04
2.08210e+04
1.04180e+04
2.06230e+04
1.56030e+04
1.39560e+04
6.87600e+03
3.51890e+04
1.37180e+04
4.66600e+03
1.38460e+04
6.82400e+03
1.02860e+04
1.33960e+04
3.51380e+04
1.45150e+04
2.06170e+04
1.32500e+04
1.14690e+04
9.01300e+03
1.13100e+03
8.32000e+02
6.00300e+03
1.74700e+03
4.77900e+03
3.10090e+04
1.41220e+04
9.88000e+02
1.65800e+03
1.63470e+04
2.48960e+04
1.40200e+04
1.37090e+04
1.62600e+03
1.61990e+04
5.30400e+03
1.37000e+03
3.14170e+04
2.48820e+04
4.03000e+02
3.06640e+04
2.96120e+04
1.32100e+03
2.08300e+03
9.30100e+03
4.54100e+03
9.90000e+01
2.11620e+04
1.38390e+04
1.17150e+04
3.40030e+04
1.18880e+04
6.25000e+02
1.80000e+03
9.85600e+03
9.98700e+03
2.56500e+04
2.70160e+04
5.80500e+03
1.60400e+03
1.64410e+04
2.34000e+02
3.15450e+04
9.60000e+01
1.54520e+04
1.08280e+04
9.51800e+03
2.87600e+04
1.45260e+04
3.41450e+04
1.35830e+04
2.88730e+04
7.93500e+03
1.23140e+04
1.93300e+04
8.58000e+03
1.36100e+04
1.73700e+03
9.27200e+03
1.95100e+03
2.16200e+04
6.00600e+03
1.70150e+04
3.10830e+04
9.68500e+03
4.50000e+02
1.00890e+04
1.22250e+04
1.49780e+04
6.94400e+03
5.30700e+03
1.05060e+04
1.33390e+04
1.78700e+04
3.82000e+02
1.44090e+04
3.81600e+03
1.82630e+04
1.55470e+04
1.00570e+04
3.42100e+03
1.98250e+04
9.78600e+03
9.88900e+03
2.90340e+04
1.29590e+04
2.50200e+03
5.72400e+03
7.01000e+02
2.10040e+04
1.16680e+04
2.23700e+03
1.71590e+04
2.94620e+04
1.65530e+04
5.51800e+03
1.09800e+03
1.01170e+04
2.46030e+04
1.66580e+04
1.37490e+04
1.61390e+04
1.29600e+03
4.42000e+02
2.21740e+04
1.32030e+04
3.52830e+04
1.29000e+02
1.67780e+04
1.59130e+04
1.65420e+04
6.04000e+03
1.63940e+04
1.87380e+04
1.55080e+04
7.19500e+03
1.32890e+04
3.18070e+04
5.35800e+03
1.52130e+04
2.90000e+02
1.38860e+04
3.31300e+03
2.50480e+04
1.43570e+04
6.12000e+02
5.37000e+03
3.36050e+04
1.43730e+04
3.02000e+04
4.34000e+02
1.13050e+04
3.12250e+04
3.42520e+04
3.25970e+04
4.76700e+03
1.61960e+04
1.59420e+04
1.44560e+04
1.37640e+04
4.99800e+03
3.50140e+04
3.53310e+04
3.31800e+03
1.12340e+04
1.86860e+04
3.58630e+04
1.21210e+04
2.58560e+04
2.86640e+04
2.27450e+04
1.77300e+03
1.27700e+03
2.94170e+04
2.34610e+04
3.44750e+04
6.74000e+02
1.76080e+04
1.62440e+04
3.75000e+02
1.84700e+03
1.21650e+04
1.84600e+03
1.58040e+04
1.86800e+03
1.06950e+04
1.44080e+04
1.43430e+04
3.34400e+03
6.73900e+03
2.47550e+04
9.74500e+03
1.34000e+02
5.82900e+03
1.30740e+04
1.63060e+04
4.57500e+03
3.18460e+04
1.21900e+03
7.99900e+03
9.78400e+03
6.16800e+03
1.18940e+04
1.52830e+04
5.40900e+03
1.20440e+04
1.94200e+03
1.56060e+04
1.51350e+04
9.93400e+03
2.96000e+04
1.33620e+04
1.49950e+04
2.18590e+04
1.82690e+04
4.53300e+03
1.26000e+02
2.43700e+03
5.21600e+03
1.64360e+04
5.92700e+03
1.44040e+04
1.10720e+04
1.17300e+03
1.95000e+03
3.16850e+04
2.99940e+04
1.88500e+03
2.78130e+04
7.07700e+03
8.49100e+03
1.48340e+04
1.67230e+04
8.10000e+03
4.39000e+02
2.52150e+04
9.05000e+02
1.39680e+04
8.41000e+02
1.62460e+04
3.38510e+04
3.21770e+04
1.31400e+04
9.78700e+03
3.51300e+03
1.15000e+02
2.18290e+04
1.13210e+04
5.79000e+02
2.74010e+04
1.37410e+04
1.79000e+03
1.17350e+04
8.60000e+02
2.70930e+04
1.36200e+03
3.19290e+04
1.20300e+03
3.21980e+04
9.08500e+03
1.50120e+04
3.21360e+04
1.83520e+04
1.13000e+03
3.48200e+03
1.52760e+04
5.19000e+03
1.42190e+04
2.53790e+04
4.97000e+02
1.61000e+02
1.44300e+04
2.73860e+04
1.17390e+04
2.54600e+03
2.47170e+04
2.11880e+04
1.46140e+04
8.03600e+03
2.14890e+04
3.24020e+04
5.26200e+03
1.28800e+03
1.19100e+03
1.77700e+03
5.21500e+03
6.46900e+03
1.34420e+04
1.57370e+04
1.13110e+04
8.70300e+03
1.19700e+03
1.38740e+04
1.81600e+03
1.50580e+04
1.31390e+04
2.96400e+04
6.97800e+03
1.66200e+03
2.19300e+03
1.66500e+03
3.04630e+04
1.76160e+04
2.15450e+04
1.15620e+04
1.55090e+04
1.00940e+04
1.46100e+04
1.23050e+04
3.05030e+04
9.57000e+02
2.90810e+04
2.64000e+02
1.08980e+04
2.01740e+04
2.02930e+04
1.54040e+04
1.73250e+04
2.10300e+04
1.51420e+04
1.09600e+03
3.38310e+04
3.57540e+04
2.43070e+04
1.84770e+04
2.12720e+04
1.18190e+04
2.88450e+04
1.64730e+04
1.35070e+04
1.41860e+04
1.59580e+04
1.53800e+04
2.44120e+04
2.37600e+03
1.42780e+04
1.48000e+02
7.54400e+03
1.35760e+04
7.45300e+03
6.82600e+03
1.40410e+04
1.43100e+04
1.69070e+04
1.62350e+04
2.59820e+04
1.72200e+03
2.03980e+04
2.95830e+04
5.36000e+02
1.37260e+04
1.16050e+04
4.30100e+03
3.10250e+04
1.69960e+04
2.94090e+04
1.48860e+04
6.64000e+02
7.89200e+03
1.48040e+04
1.85400e+03
3.42000e+04
2.84020e+04
3.47810e+04
1.63160e+04
1.72240e+04
1.33520e+04
3.47420e+04
2.71940e+04
1.18480e+04
4.06000e+02
7.83000e+02
7.92200e+03
2.92310e+04
1.72000e+02
3.30420e+04
1.11700e+03
2.88670e+04
1.97350e+04
1.58450e+04
2.97220e+04
1.57750e+04
6.26400e+03
2.72610e+04
8.05200e+03
2.01900e+03
3.17950e+04
2.21830e+04
1.24100e+03
1.31000e+03
5.62000e+02
1.95410e+04
3.34800e+03
1.38230e+04
1.19660e+04
1.50600e+04
1.18350e+04
1.33560e+04
1.92410e+04
1.22730e+04
2.11860e+04
2.63380e+04
3.02340e+04
1.47320e+04
1.08770e+04
1.00820e+04
1.72800e+03
2.43880e+04
1.31360e+04
1.60850e+04
9.34300e+03
2.41330e+04
9.10800e+03
3.15300e+04
7.34900e+03
9.69500e+03
3.15130e+04
9.15400e+03
1.49150e+04
2.55540e+04
1.46360e+04
4.65100e+03
8.62400e+03
1.07100e+03
7.40000e+01
6.39000e+02
2.39900e+03
1.11530e+04
2.79580e+04
9.25500e+03
1.43110e+04
3.39200e+04
3.30000e+02
9.46000e+03
1.28840e+04
1.19220e+04
1.11520e+04
3.33000e+03
1.91710e+04
1.23840e+04
1.26200e+03
1.38480e+04
1.22960e+04
9.44100e+03
2.96070e+04
1.40720e+04
1.95660e+04
2.15670e+04
2.38800e+03
3.20940e+04
3.37840e+04
1.14800e+04
9.57800e+03
8.00000e+01
2.27990e+04
2.21000e+02
1.60950e+04
1.33000e+03
1.42900e+03
2.18000e+03
2.74170e+04
1.36370e+04
1.53880e+04
1.98280e+04
1.64020e+04
3.21450e+04
3.44000e+02
1.22600e+03
8.25500e+03
2.00740e+04
1.18610e+04
2.15580e+04
7.24000e+02
1.36550e+04
1.47040e+04
7.46000e+02
2.85400e+04
6.11800e+03
1.22740e+04
1.00040e+04
1.59340e+04
2.94400e+03
2.97060e+04
2.56490e+04
2.82810e+04
9.41800e+03
1.00760e+04
1.11100e+03
7.82900e+03
2.16740e+04
1.35190e+04
3.67700e+03
1.85330e+04
2.96600e+03
1.50650e+04
1.88770e+04
4.58700e+03
1.48050e+04
1.60000e+02
2.51990e+04
2.80960e+04
2.16000e+02
1.79650e+04
1.46210e+04
8.49500e+03
6.91600e+03
6.41200e+03
1.23460e+04
3.45980e+04
2.98330e+04
1.35110e+04
1.70700e+03
1.00620e+04
2.10500e+03
6.49000e+02
6.87000e+02
1.56260e+04
5.27000e+03
1.44000e+02
1.69160e+04
1.36270e+04
3.47800e+03
3.01810e+04
1.12820e+04
9.17000e+02
3.06040e+04
2.04600e+04
1.61970e+04
2.80730e+04
1.31240e+04
6.99000e+02
1.48660e+04
3.24730e+04
1.24300e+03
1.51060e+04
1.42520e+04
2.01080e+04
6.32000e+02
1.63300e+04
9.24800e+03
1.17200e+03
3.16280e+04
3.16360e+04
1.09860e+04
1.76700e+03
1.36390e+04
1.27160e+04
2.89200e+03
1.54980e+04
3.36100e+03
3.12650e+04
5.89000e+02
5.02000e+02
8.46800e+03
1.23900e+03
5.84000e+02
1.87100e+03
2.88080e+04
1.50100e+04
2.76740e+04
2.41900e+03
1.21640e+04
5.00200e+03
1.36090e+04
7.07800e+03
5.33000e+02
1.39460e+04
1.39960e+04
1.08730e+04
1.37700e+04
1.34440e+04
2.74880e+04
1.37170e+04
4.32000e+02
3.08540e+04
1.25850e+04
2.01530e+04
1.57380e+04
1.58200e+04
1.18840e+04
1.78000e+02
2.99460e+04
1.63310e+04
2.03300e+03
1.36000e+02
1.32010e+04
3.34300e+03
1.21820e+04
2.17370e+04
1.38010e+04
1.59730e+04
2.24760e+04
8.70000e+02
2.12780e+04
3.57510e+04
2.15630e+04
1.64340e+04
8.42600e+03
1.01000e+02
2.08220e+04
2.53800e+04
5.51000e+02
1.34540e+04
1.06750e+04
1.98740e+04
1.86830e+04
1.83500e+03
1.64270e+04
1.62080e+04
2.24040e+04
2.22760e+04
1.44300e+03
1.98200e+04
2.08120e+04
4.67000e+03
6.12900e+03
5.75000e+03
3.50300e+03
2.87640e+04
1.73900e+03
2.24680e+04
4.77800e+03
3.57210e+04
9.14200e+03
2.68710e+04
1.06040e+04
4.46000e+02
2.59760e+04
1.40500e+04
2.07080e+04
1.14200e+03
3.85000e+02
2.11270e+04
1.75000e+02
2.71720e+04
1.05690e+04
3.02530e+04
1.60730e+04
1.33610e+04
1.35280e+04
1.17590e+04
3.51970e+04
6.75000e+02
1.62930e+04
1.59860e+04
2.89360e+04
1.47840e+04
3.28470e+04
1.40910e+04
2.57980e+04
2.97720e+04
1.69900e+03
1.32940e+04
1.55030e+04
2.09710e+04
3.22400e+03
1.54730e+04
2.87540e+04
2.00140e+04
1.23100e+03
2.52110e+04
1.57790e+04
2.03990e+04
6.11000e+02
3.42780e+04
1.47730e+04
7.73800e+03
7.02100e+03
1.56650e+04
1.89070e+04
1.71260e+04
9.37000e+02
1.02800e+03
1.54930e+04
1.74000e+02
3.18660e+04
3.49910e+04
1.83610e+04
1.53600e+04
1.51850e+04
1.44950e+04
5.93200e+03
1.80680e+04
1.87520e+04
3.08670e+04
7.38000e+03
1.18700e+03
1.89060e+04
1.29690e+04
3.17610e+04
1.12670e+04
6.16400e+03
1.23150e+04
1.49940e+04
2.87100e+04
1.37370e+04
5.31900e+03
1.65040e+04
1.15400e+03
1.35480e+04
1.70710e+04
5.96500e+03
2.88470e+04
2.42500e+03
5.01200e+03
1.12000e+03
1.59000e+02
1.54430e+04
3.97000e+02
1.92110e+04
1.22160e+04
1.39360e+04
1.35940e+04
1.42930e+04
1.82000e+02
1.40430e+04
1.74500e+03
3.33200e+03
2.13140e+04
8.42000e+02
1.52610e+04
1.36460e+04
1.72100e+03
1.62980e+04
1.37390e+04
2.57000e+02
1.07600e+03
1.49800e+04
2.91510e+04
1.25980e+04
1.32360e+04
8.40000e+01
2.52470e+04
1.40700e+03
3.61000e+03
3.79800e+03
3.13720e+04
2.73230e+04
6.51200e+03
1.54350e+04
2.61980e+04
2.51000e+04
1.35620e+04
1.86740e+04
7.53500e+03
2.07820e+04
2.52770e+04
1.08870e+04
1.14850e+04
7.04700e+03
9.18000e+02
2.78440e+04
1.61890e+04
3.40600e+04
3.13310e+04
1.67730e+04
2.38200e+03
6.41000e+03
1.10350e+04
3.50680e+04
1.96430e+04
5.41400e+03
1.57180e+04
2.79760e+04
9.88800e+03
1.37000e+02
6.92000e+02
2.00910e+04
1.57850e+04
4.50300e+03
7.79600e+03
1.91550e+04
2.96980e+04
1.14000e+02
1.23240e+04
9.71700e+03
5.78800e+03
3.20910e+04
2.70350e+04
1.38950e+04
2.77900e+04
2.30300e+04
7.35600e+03
1.10650e+04
3.53060e+04
1.43720e+04
3.14440e+04
1.55580e+04
8.89500e+03
1.87230e+04
2.53210e+04
1.49900e+03
3.13290e+04
2.96390e+04
1.60960e+04
8.90900e+03
2.44000e+02
1.74370e+04
2.50900e+03
1.09640e+04
1.46690e+04
4.56500e+03
3.52000e+02
1.92000e+02
1.36310e+04
5.65000e+02
2.59050e+04
3.22910e+04
1.39790e+04
9.92000e+02
1.30400e+03
2.87980e+04
2.51330e+04
3.10000e+02
2.13000e+04
1.19000e+03
7.39300e+03
1.11690e+04
1.09000e+03
8.98000e+02
1.47520e+04
8.95700e+03
1.41930e+04
5.07000e+02
3.15270e+04
2.08330e+04
3.24100e+04
2.32900e+03
1.21220e+04
1.18800e+03
1.63000e+02
3.22470e+04
9.70000e+01
8.85500e+03
1.39530e+04
1.89500e+03
2.36400e+03
1.42200e+04
1.15980e+04
2.75160e+04
1.51280e+04
7.57000e+02
3.38530e+04
9.05300e+03
1.54870e+04
1.31670e+04
1.41500e+04
1.02390e+04
1.22000e+03
1.10260e+04
5.39000e+02
3.20220e+04
1.47600e+04
1.90400e+04
1.48400e+03
1.38810e+04
1.62120e+04
2.81260e+04
1.52430e+04
1.37210e+04
1.56020e+04
3.15610e+04
4.81000e+02
1.47630e+04
1.28000e+02
2.02000e+02
2.29700e+03
1.14970e+04
1.79480e+04
1.69500e+04
4.85200e+03
3.39030e+04
3.41170e+04
5.89000e+03
4.70200e+03
3.17570e+04
4.67200e+03
4.30000e+02
1.52380e+04
4.71800e+03
